#%Name: Hornblende
#%Empirical formula: (Ca,Na)2-3(Mg,Fe,Al)5(Al,Si)8 O22(OH,F)2/ Wikipedia
#%Mineral group: amphibole, inosilicate
#%Xtal system: monoclinic 
#%Edge: K
#%Sample prep: 
#%Beamline: SSRL
#%Det: fluorescence mode
#%Ref/notes:  Stanford Mineral Collection. Raman confirmed.
#%Temp: Room temp
#%Time&date: 
#%Provider: Thomas Borch, Colleen Hansel, Scott Fendorf.
#%============================================================
6.8801250E+3 7.6200770E-4
6.8903633E+3 7.4133533E-4
6.9006011E+3 1.0334941E-3
6.9108394E+3 8.6486594E-4
6.9210771E+3 8.6706876E-4
6.9313154E+3 1.2645180E-3
6.9415537E+3 1.2207731E-3
6.9517915E+3 1.4869749E-3
6.9620298E+3 1.3747860E-3
6.9722681E+3 1.3377182E-3
6.9825059E+3 1.7121802E-3
6.9927441E+3 1.7375381E-3
7.0029819E+3 1.7010316E-3
7.0132202E+3 2.0617393E-3
7.0234585E+3 2.1123178E-3
7.0336963E+3 2.6338765E-3
7.0439346E+3 2.9639555E-3
7.0541729E+3 3.3849493E-3
7.0644106E+3 3.7819939E-3
7.0746489E+3 5.0356490E-3
7.0848867E+3 6.3371314E-3
7.0951250E+3 9.0107390E-3
7.0953750E+3 8.9393560E-3
7.0956250E+3 9.3328561E-3
7.0958750E+3 9.3712639E-3
7.0961250E+3 9.3425622E-3
7.0963750E+3 9.6113828E-3
7.0966250E+3 9.6698424E-3
7.0968750E+3 9.8305590E-3
7.0971250E+3 9.7617133E-3
7.0973750E+3 9.8798089E-3
7.0976250E+3 1.0091906E-2
7.0978750E+3 1.0349782E-2
7.0981250E+3 1.0066061E-2
7.0983750E+3 1.0432087E-2
7.0986250E+3 1.0728524E-2
7.0988750E+3 1.0881360E-2
7.0991250E+3 1.0662059E-2
7.0993750E+3 1.0812546E-2
7.0996250E+3 1.1248018E-2
7.0998750E+3 1.1170036E-2
7.1001250E+3 1.1311932E-2
7.1003750E+3 1.1852689E-2
7.1006250E+3 1.1745272E-2
7.1008750E+3 1.1731301E-2
7.1011250E+3 1.2065315E-2
7.1013750E+3 1.1964764E-2
7.1016250E+3 1.2346312E-2
7.1018750E+3 1.2393851E-2
7.1021250E+3 1.2639281E-2
7.1023750E+3 1.2814821E-2
7.1026250E+3 1.2705586E-2
7.1028750E+3 1.2952932E-2
7.1031250E+3 1.3411977E-2
7.1033750E+3 1.3521293E-2
7.1036250E+3 1.3900508E-2
7.1038750E+3 1.4034329E-2
7.1041250E+3 1.4209913E-2
7.1043750E+3 1.4491437E-2
7.1046250E+3 1.4596143E-2
7.1048750E+3 1.5216259E-2
7.1051250E+3 1.5415433E-2
7.1053750E+3 1.5416914E-2
7.1056250E+3 1.5702241E-2
7.1058750E+3 1.6052222E-2
7.1061250E+3 1.6290847E-2
7.1063750E+3 1.6517864E-2
7.1066250E+3 1.7331859E-2
7.1068750E+3 1.7737383E-2
7.1071250E+3 1.8125555E-2
7.1073750E+3 1.8604151E-2
7.1076250E+3 1.8888183E-2
7.1078750E+3 1.9742761E-2
7.1081250E+3 1.9846487E-2
7.1083750E+3 2.0819273E-2
7.1086250E+3 2.1490717E-2
7.1088750E+3 2.2101044E-2
7.1091250E+3 2.3248034E-2
7.1093750E+3 2.4450403E-2
7.1096250E+3 2.5876651E-2
7.1098750E+3 2.7592339E-2
7.1101250E+3 2.9535420E-2
7.1103750E+3 3.1805299E-2
7.1106250E+3 3.4119558E-2
7.1108750E+3 3.6240744E-2
7.1111250E+3 3.9003776E-2
7.1113750E+3 4.0779583E-2
7.1116250E+3 4.2719672E-2
7.1118750E+3 4.4051646E-2
7.1121250E+3 4.6134441E-2
7.1123750E+3 4.7671233E-2
7.1126250E+3 4.8882592E-2
7.1128750E+3 5.0157223E-2
7.1131250E+3 5.1044109E-2
7.1133750E+3 5.1388866E-2
7.1136250E+3 5.1915217E-2
7.1138750E+3 5.2114973E-2
7.1141250E+3 5.2825671E-2
7.1143750E+3 5.3338913E-2
7.1146250E+3 5.4467063E-2
7.1148750E+3 5.6108524E-2
7.1151250E+3 5.8066243E-2
7.1153750E+3 6.0902677E-2
7.1156250E+3 6.4948351E-2
7.1158750E+3 7.0106940E-2
7.1161250E+3 7.6812521E-2
7.1163750E+3 8.5554853E-2
7.1166250E+3 9.4769216E-2
7.1168750E+3 1.0747473E-1
7.1171250E+3 1.2135168E-1
7.1173750E+3 1.3778787E-1
7.1176250E+3 1.5440240E-1
7.1178750E+3 1.7613929E-1
7.1181250E+3 1.9958299E-1
7.1183750E+3 2.2902697E-1
7.1186250E+3 2.5715803E-1
7.1188750E+3 2.9272703E-1
7.1191250E+3 3.2836632E-1
7.1193750E+3 3.6763598E-1
7.1196250E+3 4.0372725E-1
7.1198750E+3 4.4421047E-1
7.1201250E+3 4.7626079E-1
7.1203750E+3 5.1090968E-1
7.1206250E+3 5.3742106E-1
7.1208750E+3 5.6678890E-1
7.1211250E+3 5.9103043E-1
7.1213750E+3 6.1806817E-1
7.1216250E+3 6.4258561E-1
7.1218750E+3 6.7579864E-1
7.1221250E+3 7.0688131E-1
7.1223750E+3 7.4546391E-1
7.1226250E+3 7.8442930E-1
7.1228750E+3 8.3066482E-1
7.1231250E+3 8.7313733E-1
7.1233750E+3 9.1960455E-1
7.1236250E+3 9.5843801E-1
7.1238750E+3 1.0000785E+0
7.1241250E+3 1.0314081E+0
7.1243750E+3 1.0596496E+0
7.1246250E+3 1.0827255E+0
7.1248750E+3 1.1012020E+0
7.1251250E+3 1.1163632E+0
7.1253750E+3 1.1293076E+0
7.1256250E+3 1.1399678E+0
7.1258750E+3 1.1513212E+0
7.1261250E+3 1.1641695E+0
7.1263750E+3 1.1774186E+0
7.1266250E+3 1.1930879E+0
7.1268750E+3 1.2115493E+0
7.1271250E+3 1.2335731E+0
7.1273750E+3 1.2564398E+0
7.1276250E+3 1.2851511E+0
7.1278750E+3 1.3158648E+0
7.1281250E+3 1.3481523E+0
7.1283750E+3 1.3778106E+0
7.1286250E+3 1.4105525E+0
7.1288750E+3 1.4343214E+0
7.1291250E+3 1.4555109E+0
7.1293750E+3 1.4671885E+0
7.1296250E+3 1.4741594E+0
7.1298750E+3 1.4734650E+0
7.1301250E+3 1.4649477E+0
7.1303750E+3 1.4522911E+0
7.1306250E+3 1.4370324E+0
7.1308750E+3 1.4183634E+0
7.1311250E+3 1.3971955E+0
7.1313750E+3 1.3809135E+0
7.1316250E+3 1.3606659E+0
7.1318750E+3 1.3467140E+0
7.1321250E+3 1.3281888E+0
7.1323750E+3 1.3141069E+0
7.1326250E+3 1.2958380E+0
7.1328750E+3 1.2808483E+0
7.1331250E+3 1.2615011E+0
7.1333750E+3 1.2443097E+0
7.1336250E+3 1.2245481E+0
7.1338750E+3 1.2056542E+0
7.1341250E+3 1.1862674E+0
7.1343750E+3 1.1696878E+0
7.1346250E+3 1.1518141E+0
7.1348750E+3 1.1355179E+0
7.1351250E+3 1.1237131E+0
7.1353750E+3 1.1109241E+0
7.1356250E+3 1.1018935E+0
7.1358750E+3 1.0913411E+0
7.1361250E+3 1.0833085E+0
7.1363750E+3 1.0760601E+0
7.1366250E+3 1.0686981E+0
7.1368750E+3 1.0606981E+0
7.1371250E+3 1.0555434E+0
7.1373750E+3 1.0504176E+0
7.1376250E+3 1.0445714E+0
7.1378750E+3 1.0396935E+0
7.1381250E+3 1.0377155E+0
7.1383750E+3 1.0348317E+0
7.1386250E+3 1.0342478E+0
7.1388750E+3 1.0329591E+0
7.1391250E+3 1.0326997E+0
7.1393750E+3 1.0339323E+0
7.1396250E+3 1.0349406E+0
7.1398750E+3 1.0352828E+0
7.1401250E+3 1.0354917E+0
7.1403750E+3 1.0366451E+0
7.1406250E+3 1.0361632E+0
7.1408750E+3 1.0365509E+0
7.1411250E+3 1.0358000E+0
7.1413750E+3 1.0369773E+0
7.1416250E+3 1.0350347E+0
7.1418750E+3 1.0316502E+0
7.1421250E+3 1.0305526E+0
7.1423750E+3 1.0275727E+0
7.1426250E+3 1.0243826E+0
7.1428750E+3 1.0209318E+0
7.1431250E+3 1.0175574E+0
7.1433750E+3 1.0136068E+0
7.1436250E+3 1.0093795E+0
7.1438750E+3 1.0043211E+0
7.1441250E+3 9.9896536E-1
7.1443750E+3 9.9563799E-1
7.1446250E+3 9.8865147E-1
7.1448750E+3 9.8377685E-1
7.1451250E+3 9.7847524E-1
7.1453750E+3 9.7223742E-1
7.1456250E+3 9.6626979E-1
7.1458750E+3 9.6015809E-1
7.1461250E+3 9.5326814E-1
7.1463750E+3 9.4695659E-1
7.1466250E+3 9.4130541E-1
7.1468750E+3 9.3386244E-1
7.1471250E+3 9.2871688E-1
7.1473750E+3 9.2112047E-1
7.1476250E+3 9.1486073E-1
7.1478750E+3 9.0854962E-1
7.1481250E+3 9.0341594E-1
7.1483750E+3 8.9768469E-1
7.1486250E+3 8.9161944E-1
7.1488750E+3 8.8758821E-1
7.1491250E+3 8.8292913E-1
7.1493750E+3 8.7751963E-1
7.1496250E+3 8.7492278E-1
7.1498750E+3 8.7126293E-1
7.1501250E+3 8.6806393E-1
7.1503750E+3 8.6366236E-1
7.1506250E+3 8.6211071E-1
7.1508750E+3 8.5851623E-1
7.1511250E+3 8.5615344E-1
7.1513750E+3 8.5527383E-1
7.1516250E+3 8.5333104E-1
7.1518750E+3 8.5201999E-1
7.1521250E+3 8.5112031E-1
7.1523750E+3 8.5041774E-1
7.1526250E+3 8.5048065E-1
7.1528750E+3 8.4907668E-1
7.1531250E+3 8.4799908E-1
7.1533750E+3 8.4820121E-1
7.1536250E+3 8.4979503E-1
7.1538750E+3 8.4909292E-1
7.1541250E+3 8.4952722E-1
7.1543750E+3 8.5002226E-1
7.1546250E+3 8.5143559E-1
7.1548750E+3 8.5203767E-1
7.1551250E+3 8.5292568E-1
7.1553750E+3 8.5282760E-1
7.1556250E+3 8.5453018E-1
7.1558750E+3 8.5625516E-1
7.1561250E+3 8.5800119E-1
7.1563750E+3 8.5815678E-1
7.1566250E+3 8.6052676E-1
7.1568750E+3 8.6238579E-1
7.1571250E+3 8.6341517E-1
7.1573750E+3 8.6613981E-1
7.1576250E+3 8.6798582E-1
7.1578750E+3 8.6971941E-1
7.1581250E+3 8.7162268E-1
7.1583750E+3 8.7399808E-1
7.1586250E+3 8.7704723E-1
7.1588750E+3 8.7854622E-1
7.1591250E+3 8.8272073E-1
7.1593750E+3 8.8520463E-1
7.1596250E+3 8.8825974E-1
7.1598750E+3 8.9028925E-1
7.1601250E+3 8.9414753E-1
7.1612197E+3 9.1015662E-1
7.1623345E+3 9.2823179E-1
7.1634683E+3 9.4543672E-1
7.1646221E+3 9.6220833E-1
7.1657954E+3 9.7590612E-1
7.1669888E+3 9.8525958E-1
7.1682012E+3 9.9155795E-1
7.1694336E+3 9.9722719E-1
7.1706851E+3 1.0037534E+0
7.1719565E+3 1.0106968E+0
7.1732480E+3 1.0184459E+0
7.1745586E+3 1.0292799E+0
7.1758887E+3 1.0394630E+0
7.1772388E+3 1.0473919E+0
7.1786084E+3 1.0536492E+0
7.1799976E+3 1.0579760E+0
7.1814067E+3 1.0611802E+0
7.1828350E+3 1.0614831E+0
7.1842832E+3 1.0584130E+0
7.1857510E+3 1.0548842E+0
7.1872383E+3 1.0498559E+0
7.1887451E+3 1.0467051E+0
7.1902715E+3 1.0417575E+0
7.1918179E+3 1.0355999E+0
7.1933838E+3 1.0280232E+0
7.1949692E+3 1.0214994E+0
7.1965742E+3 1.0147991E+0
7.1981987E+3 1.0074941E+0
7.1998433E+3 1.0001755E+0
7.2015068E+3 9.9269744E-1
7.2031904E+3 9.8637597E-1
7.2048936E+3 9.8068488E-1
7.2066167E+3 9.7702992E-1
7.2083589E+3 9.7590960E-1
7.2101211E+3 9.7542802E-1
7.2119028E+3 9.7587190E-1
7.2137041E+3 9.7838614E-1
7.2155249E+3 9.8032320E-1
7.2173652E+3 9.8122694E-1
7.2192256E+3 9.8082944E-1
7.2211055E+3 9.7888791E-1
7.2230049E+3 9.7692261E-1
7.2249238E+3 9.7478806E-1
7.2268623E+3 9.7288532E-1
7.2288208E+3 9.7244949E-1
7.2307983E+3 9.7335249E-1
7.2327959E+3 9.7735297E-1
7.2348130E+3 9.8217662E-1
7.2368501E+3 9.8926666E-1
7.2389062E+3 9.9641501E-1
7.2409824E+3 1.0047019E+0
7.2430781E+3 1.0118324E+0
7.2451934E+3 1.0190249E+0
7.2473281E+3 1.0249579E+0
7.2494824E+3 1.0277917E+0
7.2516567E+3 1.0283517E+0
7.2538506E+3 1.0270432E+0
7.2560640E+3 1.0260641E+0
7.2582969E+3 1.0241731E+0
7.2605493E+3 1.0224334E+0
7.2628218E+3 1.0210512E+0
7.2651133E+3 1.0185505E+0
7.2674248E+3 1.0161410E+0
7.2697559E+3 1.0154280E+0
7.2721069E+3 1.0132012E+0
7.2744771E+3 1.0118523E+0
7.2768672E+3 1.0094896E+0
7.2792769E+3 1.0082272E+0
7.2817061E+3 1.0084010E+0
7.2841548E+3 1.0075466E+0
7.2866230E+3 1.0064755E+0
7.2891113E+3 1.0056280E+0
7.2916191E+3 1.0049626E+0
7.2941465E+3 1.0048101E+0
7.2966934E+3 1.0037252E+0
7.2992598E+3 1.0027243E+0
7.3018462E+3 1.0015860E+0
7.3044517E+3 9.9914408E-1
7.3070771E+3 9.9791161E-1
7.3097222E+3 9.9741172E-1
7.3123872E+3 9.9803887E-1
7.3150713E+3 9.9934363E-1
7.3177754E+3 1.0006939E+0
7.3204985E+3 1.0016988E+0
7.3232417E+3 1.0013889E+0
7.3260049E+3 1.0024454E+0
7.3287871E+3 1.0036670E+0
7.3315894E+3 1.0037877E+0
7.3344106E+3 1.0041352E+0
7.3372520E+3 1.0040224E+0
7.3401133E+3 1.0033267E+0
7.3429937E+3 1.0031384E+0
7.3458936E+3 1.0031728E+0
7.3488135E+3 1.0049002E+0
7.3517529E+3 1.0055400E+0
7.3547119E+3 1.0055047E+0
7.3576904E+3 1.0058995E+0
7.3606890E+3 1.0060262E+0
7.3637065E+3 1.0060944E+0
7.3667441E+3 1.0062291E+0
7.3698013E+3 1.0059982E+0
7.3728779E+3 1.0063516E+0
7.3759746E+3 1.0065062E+0
7.3790903E+3 1.0073496E+0
7.3822261E+3 1.0073310E+0
7.3853813E+3 1.0063351E+0
7.3885562E+3 1.0055340E+0
7.3917510E+3 1.0044138E+0
7.3949648E+3 1.0031664E+0
7.3981987E+3 1.0019539E+0
7.4014521E+3 1.0010438E+0
7.4047251E+3 9.9915366E-1
7.4080176E+3 9.9811942E-1
7.4113296E+3 9.9691097E-1
7.4146616E+3 9.9717249E-1
7.4180132E+3 9.9658111E-1
7.4213843E+3 9.9781509E-1
7.4247749E+3 9.9805669E-1
7.4281851E+3 9.9841158E-1
7.4316152E+3 9.9864025E-1
7.4350649E+3 9.9931084E-1
7.4385342E+3 9.9941604E-1
7.4420229E+3 9.9927992E-1
7.4455312E+3 9.9986821E-1
7.4490596E+3 1.0007391E+0
7.4526069E+3 1.0010826E+0
7.4561743E+3 1.0015707E+0
7.4597612E+3 1.0017488E+0
7.4633682E+3 1.0016289E+0
7.4669941E+3 1.0017383E+0
7.4706401E+3 1.0016536E+0
7.4743052E+3 1.0011706E+0
7.4779902E+3 1.0011120E+0
7.4816953E+3 1.0008529E+0
7.4854194E+3 1.0009544E+0
7.4891636E+3 1.0003160E+0
7.4929268E+3 9.9957656E-1
7.4967100E+3 9.9920559E-1
7.5005127E+3 9.9939840E-1
7.5043354E+3 9.9922708E-1
7.5081772E+3 9.9932164E-1
7.5120391E+3 9.9946804E-1
7.5159204E+3 9.9933906E-1
7.5198213E+3 9.9974422E-1
7.5237417E+3 1.0001924E+0
7.5276821E+3 9.9998220E-1
7.5316416E+3 9.9983070E-1
7.5356211E+3 9.9992340E-1
7.5396201E+3 9.9987974E-1
7.5436387E+3 9.9991084E-1
7.5476768E+3 1.0002000E+0
7.5517349E+3 9.9953018E-1
7.5558125E+3 9.9909251E-1
7.5599097E+3 9.9897893E-1
7.5640264E+3 9.9791305E-1
7.5681626E+3 9.9874516E-1
7.5723188E+3 9.9844131E-1
7.5764941E+3 9.9818553E-1
7.5806895E+3 9.9829669E-1
7.5849043E+3 9.9782062E-1
7.5891387E+3 9.9833495E-1
7.5933931E+3 9.9906195E-1
7.5976670E+3 9.9894552E-1
7.6019600E+3 9.9902689E-1
7.6062729E+3 9.9938163E-1
7.6106055E+3 9.9868707E-1
7.6149580E+3 1.0004975E+0
7.6193296E+3 1.0004407E+0
7.6237212E+3 1.0003392E+0
7.6281323E+3 9.9998044E-1
7.6325630E+3 1.0004140E+0
7.6370132E+3 1.0004431E+0
7.6414834E+3 1.0002976E+0
7.6459731E+3 1.0005860E+0
7.6504824E+3 1.0003360E+0
7.6550112E+3 1.0000380E+0
7.6595596E+3 1.0005329E+0
7.6641274E+3 1.0001669E+0
7.6687153E+3 9.9984183E-1
7.6733228E+3 1.0000197E+0
7.6779497E+3 1.0001462E+0
7.6825962E+3 1.0000109E+0
7.6872622E+3 9.9981438E-1
7.6919482E+3 1.0002112E+0
7.6966533E+3 9.9972615E-1
7.7013784E+3 9.9987111E-1
7.7061230E+3 9.9997474E-1
7.7108877E+3 1.0000006E+0
7.7156714E+3 1.0003767E+0
7.7204751E+3 1.0003881E+0
7.7252983E+3 1.0001039E+0
7.7301411E+3 1.0005551E+0
7.7350034E+3 1.0006126E+0
7.7398853E+3 1.0003943E+0
7.7447871E+3 1.0001873E+0
7.7497085E+3 1.0002116E+0
7.7546494E+3 1.0001180E+0
7.7596099E+3 1.0000356E+0
7.7645898E+3 9.9979369E-1
7.7695898E+3 9.9960791E-1
7.7746094E+3 9.9941345E-1
7.7796484E+3 9.9982927E-1
7.7847070E+3 9.9990659E-1
7.7897852E+3 9.9992594E-1
7.7948828E+3 1.0002740E+0
7.8000005E+3 1.0004158E+0
7.8051377E+3 1.0002530E+0
7.8102944E+3 1.0002004E+0
7.8154707E+3 1.0001857E+0
7.8206670E+3 1.0004143E+0
7.8258823E+3 1.0010330E+0
7.8311177E+3 1.0009210E+0
7.8363726E+3 1.0004837E+0
7.8416470E+3 1.0000894E+0
7.8469409E+3 1.0007620E+0
7.8522549E+3 1.0005211E+0
7.8575884E+3 1.0003213E+0
7.8629414E+3 1.0002300E+0
7.8683140E+3 1.0002253E+0
7.8737061E+3 1.0000117E+0
7.8791177E+3 9.9999953E-1
7.8845493E+3 9.9991137E-1
7.8900005E+3 9.9992462E-1
7.8954712E+3 9.9992890E-1
7.9009614E+3 1.0001990E+0
7.9064717E+3 9.9986177E-1
7.9120010E+3 1.0000606E+0
7.9175503E+3 1.0001943E+0
7.9231191E+3 1.0003112E+0
7.9287075E+3 1.0002392E+0
7.9343154E+3 1.0000797E+0
7.9399434E+3 1.0003855E+0
7.9455908E+3 1.0001587E+0
7.9512578E+3 1.0002774E+0
7.9569443E+3 1.0007370E+0
7.9626504E+3 1.0004537E+0
7.9683760E+3 1.0005979E+0
7.9741216E+3 1.0003822E+0
7.9798867E+3 1.0003285E+0
7.9856714E+3 1.0001747E+0
7.9914756E+3 1.0002209E+0
7.9972998E+3 1.0002941E+0
8.0031431E+3 9.9992969E-1
8.0090063E+3 9.9990956E-1
8.0148892E+3 9.9946706E-1
8.0207915E+3 9.9976342E-1
8.0267134E+3 9.9946655E-1
8.0326553E+3 9.9935817E-1
8.0386167E+3 9.9938901E-1
8.0445972E+3 9.9928883E-1
8.0505981E+3 9.9947699E-1
8.0566182E+3 9.9915099E-1
8.0626577E+3 9.9922668E-1
8.0687173E+3 9.9893747E-1
8.0747964E+3 9.9886670E-1
8.0808950E+3 9.9912279E-1
8.0870132E+3 9.9879781E-1
8.0931509E+3 9.9830905E-1
8.0993086E+3 9.9816957E-1
8.1054858E+3 9.9804000E-1
