#%Name: Nontronite
#%Empirical formula: Na0.3Fe3+2Si3AlO10(OH)2·4(H2O) / webmineral
#%Mineral group: Phyllosilicate, smectite 
#%Xtal system: Monoclinic 
#%Edge: K
#%Sample prep: 
#%Beamline: SSRL
#%Det: fluorescence mode
#%Ref/notes:  overabsorption corrected. Clay Mineral Society. Raman confirmed.
#%Temp: Room temp
#%Time&date:
#%Provider: Thomas Borch, Colleen Hansel, Scott Fendorf.
#%============================================================
7.0232085E+3 2.2934656E-3
7.0334463E+3 2.7443440E-3
7.0436846E+3 3.1941367E-3
7.0539229E+3 3.6499457E-3
7.0641606E+3 4.2575175E-3
7.0743989E+3 5.3039895E-3
7.0846367E+3 6.6345761E-3
7.0948750E+3 9.3176174E-3
7.0951250E+3 9.3744589E-3
7.0953750E+3 9.4786387E-3
7.0956250E+3 9.5777264E-3
7.0958750E+3 9.7089230E-3
7.0961250E+3 9.7688620E-3
7.0963750E+3 9.8841627E-3
7.0966250E+3 9.9363621E-3
7.0968750E+3 1.0103990E-2
7.0971250E+3 1.0158873E-2
7.0973750E+3 1.0313012E-2
7.0976250E+3 1.0403584E-2
7.0978750E+3 1.0497646E-2
7.0981250E+3 1.0695361E-2
7.0983750E+3 1.0740880E-2
7.0986250E+3 1.0863229E-2
7.0988750E+3 1.0954226E-2
7.0991250E+3 1.1072737E-2
7.0993750E+3 1.1203431E-2
7.0996250E+3 1.1419378E-2
7.0998750E+3 1.1478183E-2
7.1001250E+3 1.1623058E-2
7.1003750E+3 1.1784030E-2
7.1006250E+3 1.1908133E-2
7.1008750E+3 1.2108679E-2
7.1011250E+3 1.2251139E-2
7.1013750E+3 1.2490158E-2
7.1016250E+3 1.2518101E-2
7.1018750E+3 1.2841858E-2
7.1021250E+3 1.2812245E-2
7.1023750E+3 1.3063568E-2
7.1026250E+3 1.3216143E-2
7.1028750E+3 1.3430065E-2
7.1031250E+3 1.3635968E-2
7.1033750E+3 1.3826361E-2
7.1036250E+3 1.3975785E-2
7.1038750E+3 1.4139080E-2
7.1041250E+3 1.4412189E-2
7.1043750E+3 1.4591232E-2
7.1046250E+3 1.4924828E-2
7.1048750E+3 1.5156650E-2
7.1051250E+3 1.5375975E-2
7.1053750E+3 1.5675361E-2
7.1056250E+3 1.5923296E-2
7.1058750E+3 1.6217885E-2
7.1061250E+3 1.6453085E-2
7.1063750E+3 1.6799461E-2
7.1066250E+3 1.7111698E-2
7.1068750E+3 1.7378599E-2
7.1071250E+3 1.7736089E-2
7.1073750E+3 1.8105404E-2
7.1076250E+3 1.8614689E-2
7.1078750E+3 1.9076127E-2
7.1081250E+3 1.9504385E-2
7.1083750E+3 1.9966812E-2
7.1086250E+3 2.0617444E-2
7.1088750E+3 2.1145570E-2
7.1091250E+3 2.1815458E-2
7.1093750E+3 2.2648620E-2
7.1096250E+3 2.3469684E-2
7.1098750E+3 2.4619682E-2
7.1101250E+3 2.5827693E-2
7.1103750E+3 2.7397237E-2
7.1106250E+3 2.9308153E-2
7.1108750E+3 3.1707772E-2
7.1111250E+3 3.4697942E-2
7.1113750E+3 3.8459143E-2
7.1116250E+3 4.2181244E-2
7.1118750E+3 4.6846108E-2
7.1121250E+3 5.1024308E-2
7.1123750E+3 5.5104168E-2
7.1126250E+3 5.8097557E-2
7.1128750E+3 6.0793160E-2
7.1131250E+3 6.2812525E-2
7.1133750E+3 6.4241524E-2
7.1136250E+3 6.4748351E-2
7.1138750E+3 6.4443911E-2
7.1141250E+3 6.3613890E-2
7.1143750E+3 6.1848282E-2
7.1146250E+3 6.0129846E-2
7.1148750E+3 5.8212490E-2
7.1151250E+3 5.6802145E-2
7.1153750E+3 5.5739669E-2
7.1156250E+3 5.5278923E-2
7.1158750E+3 5.5421908E-2
7.1161250E+3 5.6148209E-2
7.1163750E+3 5.7244314E-2
7.1166250E+3 5.8620939E-2
7.1168750E+3 6.0720810E-2
7.1171250E+3 6.3032889E-2
7.1173750E+3 6.5885658E-2
7.1176250E+3 6.8845704E-2
7.1178750E+3 7.2494190E-2
7.1181250E+3 7.6221409E-2
7.1183750E+3 8.0914690E-2
7.1186250E+3 8.5835442E-2
7.1188750E+3 9.2217775E-2
7.1191250E+3 9.9069842E-2
7.1193750E+3 1.0755242E-1
7.1196250E+3 1.1682341E-1
7.1198750E+3 1.2824807E-1
7.1201250E+3 1.4109612E-1
7.1203750E+3 1.5575934E-1
7.1206250E+3 1.7203356E-1
7.1208750E+3 1.9123717E-1
7.1211250E+3 2.1232700E-1
7.1213750E+3 2.3409016E-1
7.1216250E+3 2.5901432E-1
7.1218750E+3 2.8644283E-1
7.1221250E+3 3.1664339E-1
7.1223750E+3 3.4597331E-1
7.1226250E+3 3.7865361E-1
7.1228750E+3 4.1058993E-1
7.1231250E+3 4.4462233E-1
7.1233750E+3 4.7477192E-1
7.1236250E+3 5.0862199E-1
7.1238750E+3 5.3876587E-1
7.1241250E+3 5.7171691E-1
7.1243750E+3 6.0093903E-1
7.1246250E+3 6.3544444E-1
7.1248750E+3 6.6721457E-1
7.1251250E+3 7.0513821E-1
7.1253750E+3 7.3852950E-1
7.1256250E+3 7.8126077E-1
7.1258750E+3 8.2143943E-1
7.1261250E+3 8.6669889E-1
7.1263750E+3 9.0624921E-1
7.1266250E+3 9.5391801E-1
7.1268750E+3 9.9524118E-1
7.1271250E+3 1.0388309E+0
7.1273750E+3 1.0743358E+0
7.1276250E+3 1.1111455E+0
7.1278750E+3 1.1406064E+0
7.1281250E+3 1.1686872E+0
7.1283750E+3 1.1915878E+0
7.1286250E+3 1.2134772E+0
7.1288750E+3 1.2319031E+0
7.1291250E+3 1.2493874E+0
7.1293750E+3 1.2637819E+0
7.1296250E+3 1.2784178E+0
7.1298750E+3 1.2926993E+0
7.1301250E+3 1.3066760E+0
7.1303750E+3 1.3189111E+0
7.1306250E+3 1.3315988E+0
7.1308750E+3 1.3427469E+0
7.1311250E+3 1.3530761E+0
7.1313750E+3 1.3609271E+0
7.1316250E+3 1.3687046E+0
7.1318750E+3 1.3733546E+0
7.1321250E+3 1.3766726E+0
7.1323750E+3 1.3766372E+0
7.1326250E+3 1.3737964E+0
7.1328750E+3 1.3705077E+0
7.1331250E+3 1.3637311E+0
7.1333750E+3 1.3563536E+0
7.1336250E+3 1.3477860E+0
7.1338750E+3 1.3361299E+0
7.1341250E+3 1.3261220E+0
7.1343750E+3 1.3135872E+0
7.1346250E+3 1.3024771E+0
7.1348750E+3 1.2893421E+0
7.1351250E+3 1.2781916E+0
7.1353750E+3 1.2665084E+0
7.1356250E+3 1.2560072E+0
7.1358750E+3 1.2460857E+0
7.1361250E+3 1.2377720E+0
7.1363750E+3 1.2293726E+0
7.1366250E+3 1.2219054E+0
7.1368750E+3 1.2150701E+0
7.1371250E+3 1.2087694E+0
7.1373750E+3 1.2021355E+0
7.1376250E+3 1.1966924E+0
7.1378750E+3 1.1905080E+0
7.1381250E+3 1.1855692E+0
7.1383750E+3 1.1794445E+0
7.1386250E+3 1.1744068E+0
7.1388750E+3 1.1690023E+0
7.1391250E+3 1.1635349E+0
7.1393750E+3 1.1581696E+0
7.1396250E+3 1.1532136E+0
7.1398750E+3 1.1480960E+0
7.1401250E+3 1.1427980E+0
7.1403750E+3 1.1379842E+0
7.1406250E+3 1.1333159E+0
7.1408750E+3 1.1290586E+0
7.1411250E+3 1.1252987E+0
7.1413750E+3 1.1207195E+0
7.1416250E+3 1.1172840E+0
7.1418750E+3 1.1136353E+0
7.1421250E+3 1.1110157E+0
7.1423750E+3 1.1081408E+0
7.1426250E+3 1.1059766E+0
7.1428750E+3 1.1044216E+0
7.1431250E+3 1.1036858E+0
7.1433750E+3 1.1024483E+0
7.1436250E+3 1.1026055E+0
7.1438750E+3 1.1023969E+0
7.1441250E+3 1.1025047E+0
7.1443750E+3 1.1029250E+0
7.1446250E+3 1.1032489E+0
7.1448750E+3 1.1036135E+0
7.1451250E+3 1.1032325E+0
7.1453750E+3 1.1029658E+0
7.1456250E+3 1.1014697E+0
7.1458750E+3 1.1010163E+0
7.1461250E+3 1.0983046E+0
7.1463750E+3 1.0951004E+0
7.1466250E+3 1.0915436E+0
7.1468750E+3 1.0879021E+0
7.1471250E+3 1.0825340E+0
7.1473750E+3 1.0758864E+0
7.1476250E+3 1.0694164E+0
7.1478750E+3 1.0620597E+0
7.1481250E+3 1.0543178E+0
7.1483750E+3 1.0457651E+0
7.1486250E+3 1.0376334E+0
7.1488750E+3 1.0288648E+0
7.1491250E+3 1.0193989E+0
7.1493750E+3 1.0101710E+0
7.1496250E+3 1.0010353E+0
7.1498750E+3 9.9308703E-1
7.1501250E+3 9.8434980E-1
7.1503750E+3 9.7580654E-1
7.1506250E+3 9.6750961E-1
7.1508750E+3 9.6038588E-1
7.1511250E+3 9.5293725E-1
7.1513750E+3 9.4629936E-1
7.1516250E+3 9.3902451E-1
7.1518750E+3 9.3343442E-1
7.1521250E+3 9.2690234E-1
7.1523750E+3 9.2159537E-1
7.1526250E+3 9.1606828E-1
7.1528750E+3 9.1097349E-1
7.1531250E+3 9.0574591E-1
7.1533750E+3 9.0133094E-1
7.1536250E+3 8.9693261E-1
7.1538750E+3 8.9238832E-1
7.1541250E+3 8.8773437E-1
7.1543750E+3 8.8384005E-1
7.1546250E+3 8.7971016E-1
7.1548750E+3 8.7580014E-1
7.1551250E+3 8.7179986E-1
7.1553750E+3 8.6839672E-1
7.1556250E+3 8.6507471E-1
7.1558750E+3 8.6186699E-1
7.1561250E+3 8.5874427E-1
7.1563750E+3 8.5569951E-1
7.1566250E+3 8.5233561E-1
7.1568750E+3 8.5002555E-1
7.1571250E+3 8.4657854E-1
7.1573750E+3 8.4396995E-1
7.1576250E+3 8.4197103E-1
7.1578750E+3 8.3961011E-1
7.1581250E+3 8.3743566E-1
7.1583750E+3 8.3545790E-1
7.1586250E+3 8.3345071E-1
7.1588750E+3 8.3212827E-1
7.1591250E+3 8.3068428E-1
7.1593750E+3 8.2969922E-1
7.1596250E+3 8.2889748E-1
7.1598750E+3 8.2817793E-1
7.1609697E+3 8.2700476E-1
7.1620845E+3 8.2995048E-1
7.1632183E+3 8.3728256E-1
7.1643721E+3 8.4913985E-1
7.1655454E+3 8.6468437E-1
7.1667388E+3 8.8340622E-1
7.1679512E+3 9.0419100E-1
7.1691836E+3 9.2607507E-1
7.1704351E+3 9.4876352E-1
7.1717065E+3 9.7167039E-1
7.1729980E+3 9.9544624E-1
7.1743086E+3 1.0187628E+0
7.1756387E+3 1.0382447E+0
7.1769888E+3 1.0516353E+0
7.1783584E+3 1.0618709E+0
7.1797476E+3 1.0694823E+0
7.1811567E+3 1.0730159E+0
7.1825850E+3 1.0734698E+0
7.1840332E+3 1.0716271E+0
7.1855010E+3 1.0683543E+0
7.1869883E+3 1.0650302E+0
7.1884951E+3 1.0615731E+0
7.1900215E+3 1.0579693E+0
7.1915679E+3 1.0548889E+0
7.1931338E+3 1.0525458E+0
7.1947192E+3 1.0503003E+0
7.1963242E+3 1.0474395E+0
7.1979487E+3 1.0432359E+0
7.1995933E+3 1.0385967E+0
7.2012568E+3 1.0327177E+0
7.2029404E+3 1.0265473E+0
7.2046436E+3 1.0202647E+0
7.2063667E+3 1.0136112E+0
7.2081089E+3 1.0069945E+0
7.2098711E+3 1.0008383E+0
7.2116528E+3 9.9516107E-1
7.2134541E+3 9.9105003E-1
7.2152749E+3 9.8844268E-1
7.2171152E+3 9.8843461E-1
7.2189756E+3 9.9064482E-1
7.2208555E+3 9.9369154E-1
7.2227549E+3 9.9694861E-1
7.2246738E+3 9.9888527E-1
7.2266123E+3 9.9875917E-1
7.2285708E+3 9.9747581E-1
7.2305483E+3 9.9477711E-1
7.2325459E+3 9.9151913E-1
7.2345630E+3 9.8733251E-1
7.2366001E+3 9.8328978E-1
7.2386562E+3 9.8066917E-1
7.2407324E+3 9.7932934E-1
7.2428281E+3 9.7971924E-1
7.2449434E+3 9.8215538E-1
7.2470781E+3 9.8594763E-1
7.2492324E+3 9.9207486E-1
7.2514067E+3 9.9909965E-1
7.2536006E+3 1.0069154E+0
7.2558140E+3 1.0146493E+0
7.2580469E+3 1.0224686E+0
7.2602993E+3 1.0288705E+0
7.2625718E+3 1.0344655E+0
7.2648633E+3 1.0382114E+0
7.2671748E+3 1.0410214E+0
7.2695059E+3 1.0418712E+0
7.2718569E+3 1.0427557E+0
7.2742271E+3 1.0434386E+0
7.2766172E+3 1.0430594E+0
7.2790269E+3 1.0427214E+0
7.2814561E+3 1.0404796E+0
7.2839048E+3 1.0374690E+0
7.2863730E+3 1.0340156E+0
7.2888613E+3 1.0291557E+0
7.2913691E+3 1.0242312E+0
7.2938965E+3 1.0183462E+0
7.2964434E+3 1.0126241E+0
7.2990098E+3 1.0075288E+0
7.3015962E+3 1.0031815E+0
7.3042017E+3 9.9992488E-1
7.3068271E+3 9.9835351E-1
7.3094722E+3 9.9842772E-1
7.3121372E+3 9.9958579E-1
7.3148213E+3 1.0022421E+0
7.3175254E+3 1.0049877E+0
7.3202485E+3 1.0084449E+0
7.3229917E+3 1.0110530E+0
7.3257549E+3 1.0133540E+0
7.3285371E+3 1.0154650E+0
7.3313394E+3 1.0166137E+0
7.3341606E+3 1.0171457E+0
7.3370020E+3 1.0169423E+0
7.3398633E+3 1.0162777E+0
7.3427437E+3 1.0153730E+0
7.3456436E+3 1.0142772E+0
7.3485635E+3 1.0132843E+0
7.3515029E+3 1.0124223E+0
7.3544619E+3 1.0114632E+0
7.3574404E+3 1.0108048E+0
7.3604390E+3 1.0106567E+0
7.3634565E+3 1.0099246E+0
7.3664941E+3 1.0100962E+0
7.3695513E+3 1.0109592E+0
7.3726279E+3 1.0119653E+0
7.3757246E+3 1.0137740E+0
7.3788403E+3 1.0158702E+0
7.3819761E+3 1.0184885E+0
7.3851313E+3 1.0203519E+0
7.3883062E+3 1.0225901E+0
7.3915010E+3 1.0241277E+0
7.3947148E+3 1.0248735E+0
7.3979487E+3 1.0251046E+0
7.4012021E+3 1.0243676E+0
7.4044751E+3 1.0227385E+0
7.4077676E+3 1.0208556E+0
7.4110796E+3 1.0177970E+0
7.4144116E+3 1.0147844E+0
7.4177632E+3 1.0125688E+0
7.4211343E+3 1.0101738E+0
7.4245249E+3 1.0082442E+0
7.4279351E+3 1.0070881E+0
7.4313652E+3 1.0061409E+0
7.4348149E+3 1.0054263E+0
7.4382842E+3 1.0050601E+0
7.4417729E+3 1.0055637E+0
7.4452812E+3 1.0059527E+0
7.4488096E+3 1.0067738E+0
7.4523569E+3 1.0069536E+0
7.4559243E+3 1.0082572E+0
7.4595112E+3 1.0095098E+0
7.4631182E+3 1.0111688E+0
7.4667441E+3 1.0127438E+0
7.4703901E+3 1.0143556E+0
7.4740552E+3 1.0160018E+0
7.4777402E+3 1.0170051E+0
7.4814453E+3 1.0175256E+0
7.4851694E+3 1.0177572E+0
7.4889136E+3 1.0176408E+0
7.4926768E+3 1.0169042E+0
7.4964600E+3 1.0163675E+0
7.5002627E+3 1.0152087E+0
7.5040854E+3 1.0142991E+0
7.5079272E+3 1.0132493E+0
7.5117891E+3 1.0123445E+0
7.5156704E+3 1.0123623E+0
7.5195713E+3 1.0119194E+0
7.5234917E+3 1.0117414E+0
7.5274321E+3 1.0122085E+0
7.5313916E+3 1.0127760E+0
7.5353711E+3 1.0131852E+0
7.5393701E+3 1.0136511E+0
7.5433887E+3 1.0138746E+0
7.5474268E+3 1.0141252E+0
7.5514849E+3 1.0144644E+0
7.5555625E+3 1.0146303E+0
7.5596597E+3 1.0144307E+0
7.5637764E+3 1.0143318E+0
7.5679126E+3 1.0141654E+0
7.5720688E+3 1.0139183E+0
7.5762441E+3 1.0135307E+0
7.5804395E+3 1.0134034E+0
7.5846543E+3 1.0129887E+0
7.5888887E+3 1.0130027E+0
7.5931431E+3 1.0124081E+0
7.5974170E+3 1.0121380E+0
7.6017100E+3 1.0117281E+0
7.6060229E+3 1.0116367E+0
7.6103555E+3 1.0117550E+0
7.6147080E+3 1.0120817E+0
7.6190796E+3 1.0123746E+0
7.6234712E+3 1.0127305E+0
7.6278823E+3 1.0131995E+0
7.6323130E+3 1.0140290E+0
7.6367632E+3 1.0147606E+0
7.6412334E+3 1.0156885E+0
7.6457231E+3 1.0159720E+0
7.6502324E+3 1.0163517E+0
7.6547612E+3 1.0165579E+0
7.6593096E+3 1.0168107E+0
7.6638774E+3 1.0169115E+0
7.6684653E+3 1.0163346E+0
7.6730728E+3 1.0161789E+0
7.6776997E+3 1.0155731E+0
7.6823462E+3 1.0163422E+0
7.6870122E+3 1.0153301E+0
7.6916982E+3 1.0151744E+0
7.6964033E+3 1.0149135E+0
7.7011284E+3 1.0147859E+0
7.7058730E+3 1.0145898E+0
7.7106377E+3 1.0146451E+0
7.7154214E+3 1.0144145E+0
7.7202251E+3 1.0140994E+0
7.7250483E+3 1.0140923E+0
7.7298911E+3 1.0142882E+0
7.7347534E+3 1.0140231E+0
7.7396353E+3 1.0142572E+0
7.7445371E+3 1.0143919E+0
7.7494585E+3 1.0146119E+0
7.7543994E+3 1.0146749E+0
7.7593599E+3 1.0147123E+0
7.7643398E+3 1.0146397E+0
7.7693398E+3 1.0148505E+0
7.7743594E+3 1.0150157E+0
7.7793984E+3 1.0150655E+0
7.7844570E+3 1.0152237E+0
7.7895352E+3 1.0151274E+0
7.7946328E+3 1.0149991E+0
7.7997505E+3 1.0150467E+0
7.8048877E+3 1.0150620E+0
7.8100444E+3 1.0150923E+0
7.8152207E+3 1.0149651E+0
7.8204170E+3 1.0146605E+0
7.8256323E+3 1.0147537E+0
7.8308677E+3 1.0148078E+0
7.8361226E+3 1.0147275E+0
7.8413970E+3 1.0147268E+0
7.8466909E+3 1.0146794E+0
7.8520049E+3 1.0146681E+0
7.8573384E+3 1.0147200E+0
7.8626914E+3 1.0148061E+0
7.8680640E+3 1.0147907E+0
7.8734561E+3 1.0147961E+0
7.8788677E+3 1.0148122E+0
7.8842993E+3 1.0147504E+0
7.8897505E+3 1.0146664E+0
7.8952212E+3 1.0144810E+0
7.9007114E+3 1.0144787E+0
7.9062217E+3 1.0142260E+0
7.9117510E+3 1.0141094E+0
7.9173003E+3 1.0140475E+0
7.9228691E+3 1.0141157E+0
7.9284575E+3 1.0139417E+0
7.9340654E+3 1.0138678E+0
7.9396934E+3 1.0138937E+0
7.9453408E+3 1.0141026E+0
7.9510078E+3 1.0138846E+0
7.9566943E+3 1.0140940E+0
7.9624004E+3 1.0142150E+0
7.9681260E+3 1.0143671E+0
7.9738716E+3 1.0143421E+0
7.9796367E+3 1.0145088E+0
7.9854214E+3 1.0145337E+0
7.9912256E+3 1.0146248E+0
7.9970498E+3 1.0145481E+0
